Energy [GeV/n] 	 H 		 He 		 e^- 		 e^-+e^+ 	     [particles/(GeV/n s m^2 sr)] 
1.000000e-02	2.088676e+04	4.152594e+03	4.760224e+04	5.048575e+04
1.070000e-02	2.165170e+04	4.248192e+03	5.201086e+04	5.526520e+04
1.144900e-02	2.188601e+04	4.254262e+03	5.095603e+04	5.426653e+04
1.225043e-02	2.207526e+04	4.251775e+03	4.905034e+04	5.236611e+04
1.310796e-02	2.224578e+04	4.244962e+03	4.699346e+04	5.030216e+04
1.402552e-02	2.240068e+04	4.234345e+03	4.493038e+04	4.822711e+04
1.500730e-02	2.254034e+04	4.219987e+03	4.290463e+04	4.618661e+04
1.605781e-02	2.266451e+04	4.201837e+03	4.093346e+04	4.419866e+04
1.718186e-02	2.277245e+04	4.179766e+03	3.902475e+04	4.227143e+04
1.838459e-02	2.286334e+04	4.153680e+03	3.718214e+04	4.040868e+04
1.967151e-02	2.293677e+04	4.123712e+03	3.540714e+04	3.861185e+04
2.104852e-02	2.299269e+04	4.090198e+03	3.369995e+04	3.688102e+04
2.252192e-02	2.303078e+04	4.053400e+03	3.206003e+04	3.521549e+04
2.409845e-02	2.304636e+04	4.011770e+03	3.048631e+04	3.361415e+04
2.578534e-02	2.303907e+04	3.965610e+03	2.897741e+04	3.207540e+04
2.759032e-02	2.301168e+04	3.916342e+03	2.753170e+04	3.059761e+04
2.952164e-02	2.296586e+04	3.864796e+03	2.614738e+04	2.917874e+04
3.158815e-02	2.289895e+04	3.810242e+03	2.482251e+04	2.781671e+04
3.379932e-02	2.280821e+04	3.751846e+03	2.355506e+04	2.650920e+04
3.616528e-02	2.269333e+04	3.689622e+03	2.234288e+04	2.525394e+04
3.869684e-02	2.255484e+04	3.623911e+03	2.118380e+04	2.404850e+04
4.140562e-02	2.239355e+04	3.555034e+03	2.007579e+04	2.289072e+04
4.430402e-02	2.221056e+04	3.483226e+03	1.901676e+04	2.177826e+04
4.740530e-02	2.200578e+04	3.408565e+03	1.800452e+04	2.070894e+04
5.072367e-02	2.177866e+04	3.331130e+03	1.703711e+04	1.968080e+04
5.427433e-02	2.152978e+04	3.251318e+03	1.611897e+04	1.869920e+04
5.807353e-02	2.125790e+04	3.168561e+03	1.524430e+04	1.775770e+04
6.213868e-02	2.096367e+04	3.083349e+03	1.441037e+04	1.685345e+04
6.648838e-02	2.064832e+04	2.996275e+03	1.361508e+04	1.598436e+04
7.114257e-02	2.031295e+04	2.907725e+03	1.285648e+04	1.514867e+04
7.612255e-02	1.995780e+04	2.817758e+03	1.213270e+04	1.434483e+04
8.145113e-02	1.958343e+04	2.726440e+03	1.144198e+04	1.357145e+04
8.715271e-02	1.919031e+04	2.633974e+03	1.078268e+04	1.282695e+04
9.325340e-02	1.877949e+04	2.540612e+03	1.015326e+04	1.211030e+04
9.978114e-02	1.835180e+04	2.446609e+03	9.552083e+03	1.142011e+04
1.067658e-01	1.790842e+04	2.352240e+03	8.977737e+03	1.075583e+04
1.142394e-01	1.744996e+04	2.257804e+03	8.428745e+03	1.011597e+04
1.222362e-01	1.697744e+04	2.163565e+03	7.903873e+03	9.500215e+03
1.307927e-01	1.649221e+04	2.069677e+03	7.401892e+03	8.907350e+03
1.399482e-01	1.599593e+04	1.976262e+03	6.921798e+03	8.337206e+03
1.497446e-01	1.548988e+04	1.883545e+03	6.462464e+03	7.788746e+03
1.602267e-01	1.497554e+04	1.791815e+03	6.022949e+03	7.261642e+03
1.714426e-01	1.445425e+04	1.701294e+03	5.602390e+03	6.755228e+03
1.834435e-01	1.392755e+04	1.612137e+03	5.200068e+03	6.269098e+03
1.962846e-01	1.339699e+04	1.524535e+03	4.815373e+03	5.803021e+03
2.100245e-01	1.286411e+04	1.438727e+03	4.447764e+03	5.356569e+03
2.247262e-01	1.233054e+04	1.354906e+03	4.096862e+03	4.929913e+03
2.404571e-01	1.179758e+04	1.273178e+03	3.762245e+03	4.522494e+03
2.572891e-01	1.126703e+04	1.193641e+03	3.443746e+03	4.134812e+03
2.752993e-01	1.074004e+04	1.116426e+03	3.141057e+03	3.766169e+03
2.945703e-01	1.021880e+04	1.041692e+03	2.854185e+03	3.417293e+03
3.151902e-01	9.703601e+03	9.696198e+02	2.582916e+03	3.087350e+03
3.372535e-01	9.196298e+03	9.003771e+02	2.327350e+03	2.777034e+03
3.608612e-01	8.696876e+03	8.340829e+02	2.087370e+03	2.485739e+03
3.861215e-01	8.206911e+03	7.708159e+02	1.863074e+03	2.213962e+03
4.131500e-01	7.726536e+03	7.106255e+02	1.654381e+03	1.961366e+03
4.420705e-01	7.257155e+03	6.535434e+02	1.461555e+03	1.728478e+03
4.730155e-01	6.799226e+03	5.995987e+02	1.284171e+03	1.514621e+03
5.061265e-01	6.354031e+03	5.488105e+02	1.121984e+03	1.319509e+03
5.415554e-01	5.922479e+03	5.011609e+02	9.746403e+02	1.142658e+03
5.794643e-01	5.505907e+03	4.565927e+02	8.416954e+02	9.834869e+02
6.200268e-01	5.105426e+03	4.150245e+02	7.226383e+02	8.413688e+02
6.634286e-01	4.722332e+03	3.763592e+02	6.168301e+02	7.153965e+02
7.098686e-01	4.357533e+03	3.404921e+02	5.235781e+02	6.047562e+02
7.595595e-01	4.011277e+03	3.073176e+02	4.420311e+02	5.082946e+02
8.127286e-01	3.683702e+03	2.767312e+02	3.713426e+02	4.250387e+02
8.696196e-01	3.374296e+03	2.486314e+02	3.105252e+02	3.536492e+02
9.304930e-01	3.082665e+03	2.229049e+02	2.586542e+02	2.930589e+02
9.956275e-01	2.808644e+03	1.994162e+02	2.147133e+02	2.419336e+02
1.065321e+00	2.552718e+03	1.780226e+02	1.777854e+02	1.992185e+02
1.139894e+00	2.314007e+03	1.585889e+02	1.469273e+02	1.636926e+02
1.219686e+00	2.092492e+03	1.409832e+02	1.213052e+02	1.343756e+02
1.305065e+00	1.887094e+03	1.250708e+02	1.001187e+02	1.102665e+02
1.396419e+00	1.697291e+03	1.107191e+02	8.267209e+01	9.054046e+01
1.494168e+00	1.522169e+03	9.780776e+01	6.833441e+01	7.442837e+01
1.598760e+00	1.361340e+03	8.622601e+01	5.656686e+01	6.128965e+01
1.710673e+00	1.213915e+03	7.586292e+01	4.690849e+01	5.057512e+01
1.830421e+00	1.079132e+03	6.660777e+01	3.897218e+01	4.182474e+01
1.958550e+00	9.561693e+02	5.835682e+01	3.244071e+01	3.466957e+01
2.095648e+00	8.445526e+02	5.101622e+01	2.704980e+01	2.879700e+01
2.242344e+00	7.437241e+02	4.450312e+01	2.259054e+01	2.396987e+01
2.399308e+00	6.528938e+02	3.874475e+01	1.888728e+01	1.997828e+01
2.567260e+00	5.714784e+02	3.366903e+01	1.580592e+01	1.667396e+01
2.746968e+00	4.986745e+02	2.920039e+01	1.323251e+01	1.392274e+01
2.939255e+00	4.340219e+02	2.527134e+01	1.108161e+01	1.163324e+01
3.145003e+00	3.766636e+02	2.183048e+01	9.277450e+00	9.717381e+00
3.365154e+00	3.261317e+02	1.883125e+01	7.764015e+00	8.117089e+00
3.600714e+00	2.816617e+02	1.622176e+01	6.492034e+00	6.775053e+00
3.852764e+00	2.427770e+02	1.395139e+01	5.423369e+00	5.651110e+00
4.122458e+00	2.088085e+02	1.197857e+01	4.524540e+00	4.707687e+00
4.411030e+00	1.792828e+02	1.026861e+01	3.768822e+00	3.916520e+00
4.719802e+00	1.536508e+02	8.789945e+00	3.133141e+00	3.252307e+00
5.050188e+00	1.314943e+02	7.513431e+00	2.598445e+00	2.694684e+00
5.403701e+00	1.123676e+02	6.412547e+00	2.148715e+00	2.226529e+00
5.781960e+00	9.590824e+01	5.463749e+00	1.770396e+00	1.833338e+00
6.186697e+00	8.176491e+01	4.647702e+00	1.452033e+00	1.503088e+00
6.619766e+00	6.964130e+01	3.948608e+00	1.183511e+00	1.224900e+00
7.083150e+00	5.926990e+01	3.350968e+00	9.561715e-01	9.898490e-01
7.578970e+00	5.040250e+01	2.837287e+00	7.611920e-01	7.885501e-01
8.109498e+00	4.283473e+01	2.397998e+00	6.030358e-01	6.253544e-01
8.677163e+00	3.637403e+01	2.023672e+00	4.775810e-01	4.957458e-01
9.284565e+00	3.087631e+01	1.705673e+00	3.783151e-01	3.931742e-01
9.934484e+00	2.618116e+01	1.436263e+00	2.997084e-01	3.118294e-01
1.062990e+01	2.216943e+01	1.208479e+00	2.375059e-01	2.474286e-01
1.137399e+01	1.869924e+01	1.015930e+00	1.882325e-01	1.963418e-01
1.217017e+01	1.569151e+01	8.530623e-01	1.492142e-01	1.558627e-01
1.302208e+01	1.312191e+01	7.154429e-01	1.182996e-01	1.237471e-01
1.393363e+01	1.094831e+01	5.994540e-01	9.381221e-02	9.828164e-02
1.490898e+01	9.116377e+00	5.019296e-01	7.440738e-02	7.807497e-02
1.595261e+01	7.581092e+00	4.200712e-01	5.902760e-02	6.204111e-02
1.706929e+01	6.296831e+00	3.514240e-01	4.683680e-02	4.931640e-02
1.826414e+01	5.226007e+00	2.938620e-01	3.717167e-02	3.921168e-02
1.954263e+01	4.334181e+00	2.456068e-01	2.950970e-02	3.119052e-02
2.091062e+01	3.592721e+00	2.051881e-01	2.343146e-02	2.481586e-02
2.237436e+01	2.977025e+00	1.713553e-01	1.861100e-02	1.975406e-02
2.394057e+01	2.465950e+00	1.430325e-01	1.478555e-02	1.572815e-02
2.561641e+01	2.042495e+00	1.193216e-01	1.175145e-02	1.253035e-02
2.740956e+01	1.691199e+00	9.949000e-02	9.342242e-03	9.984925e-03
2.932822e+01	1.400338e+00	8.292513e-02	7.430512e-03	7.962297e-03
3.138120e+01	1.159046e+00	6.910379e-02	5.911799e-03	6.351131e-03
3.357788e+01	9.595093e-01	5.757901e-02	4.706076e-03	5.069789e-03
3.592834e+01	7.940892e-01	4.796587e-02	3.747874e-03	4.048677e-03
3.844332e+01	6.572380e-01	3.994144e-02	2.986609e-03	3.235666e-03
4.113435e+01	5.437909e-01	3.324654e-02	2.381390e-03	2.587508e-03
4.401376e+01	4.499727e-01	2.766866e-02	1.900251e-03	2.070958e-03
4.709472e+01	3.722601e-01	2.302307e-02	1.517590e-03	1.658969e-03
5.039135e+01	3.079904e-01	1.915094e-02	1.213208e-03	1.330297e-03
5.391874e+01	2.547744e-01	1.592361e-02	9.710431e-04	1.068031e-03
5.769306e+01	2.107489e-01	1.323741e-02	7.782978e-04	8.586106e-04
6.173157e+01	1.743019e-01	1.100396e-02	6.249420e-04	6.914802e-04
6.605278e+01	1.441475e-01	9.146803e-03	5.029737e-04	5.580661e-04
7.067647e+01	1.192091e-01	7.601881e-03	4.057886e-04	4.514364e-04
7.562383e+01	9.857158e-02	6.316266e-03	3.273443e-04	3.651284e-04
8.091750e+01	8.150747e-02	5.246487e-03	2.640721e-04	2.953664e-04
8.658172e+01	6.738097e-02	4.357162e-03	2.129914e-04	2.388808e-04
9.264244e+01	5.571406e-02	3.618574e-03	1.717881e-04	1.932257e-04
9.912741e+01	4.605436e-02	3.004994e-03	1.385279e-04	1.562558e-04
1.060663e+02	3.807642e-02	2.494887e-03	1.117025e-04	1.263661e-04
1.134910e+02	3.147178e-02	2.070890e-03	9.005333e-05	1.021697e-04
1.214353e+02	2.601679e-02	1.718741e-03	7.259050e-05	8.260155e-05
1.299358e+02	2.150206e-02	1.426405e-03	5.850193e-05	6.676625e-05
1.390313e+02	1.777343e-02	1.183756e-03	4.714030e-05	5.395916e-05
1.487635e+02	1.468872e-02	9.823252e-04	3.797764e-05	4.359964e-05
1.591770e+02	1.214051e-02	8.150678e-04	3.058944e-05	3.522172e-05
1.703193e+02	1.003285e-02	6.762040e-04	2.463339e-05	2.844810e-05
1.822417e+02	8.291469e-03	5.610103e-04	1.983195e-05	2.297039e-05
1.949986e+02	6.851982e-03	4.657151e-04	1.596290e-05	1.854353e-05
2.086485e+02	5.662315e-03	3.891805e-04	1.284470e-05	1.496410e-05
2.232539e+02	4.679183e-03	3.264085e-04	1.033311e-05	1.207273e-05
2.388817e+02	3.866342e-03	2.738849e-04	8.309498e-06	9.735321e-06
2.556034e+02	3.194938e-03	2.298308e-04	6.680256e-06	7.848181e-06
2.734957e+02	2.639610e-03	1.928589e-04	5.368071e-06	6.323166e-06
2.926404e+02	2.181298e-03	1.618208e-04	4.312176e-06	5.092684e-06
3.131252e+02	1.802264e-03	1.357673e-04	3.462232e-06	4.098941e-06
3.350439e+02	1.490423e-03	1.139038e-04	2.778667e-06	3.297574e-06
3.584970e+02	1.238396e-03	9.555662e-05	2.228849e-06	2.651007e-06
3.835918e+02	1.029981e-03	8.015856e-05	1.786929e-06	2.129922e-06
4.104432e+02	8.565974e-04	6.723800e-05	1.431774e-06	1.709945e-06
4.391743e+02	7.125258e-04	5.640033e-05	1.146511e-06	1.371733e-06
4.699165e+02	5.925928e-04	4.730958e-05	9.174776e-07	1.099489e-06
5.028106e+02	4.928971e-04	3.968112e-05	7.336897e-07	8.804979e-07
5.380073e+02	4.099282e-04	3.327954e-05	5.862991e-07	7.044852e-07
5.756679e+02	3.409417e-04	2.791015e-05	4.681498e-07	5.630783e-07
6.159646e+02	2.835511e-04	2.340755e-05	3.735180e-07	4.496067e-07
6.590821e+02	2.358188e-04	1.963046e-05	2.977487e-07	3.585761e-07
7.052179e+02	1.961268e-04	1.646118e-05	2.371439e-07	2.856593e-07
7.545831e+02	1.631015e-04	1.380258e-05	1.886858e-07	2.272684e-07
8.074040e+02	1.356479e-04	1.157312e-05	1.499877e-07	1.805984e-07
8.639222e+02	1.127966e-04	9.703744e-06	1.190931e-07	1.432977e-07
9.243968e+02	9.381143e-05	8.136330e-06	9.446280e-08	1.135484e-07
9.891046e+02	7.800651e-05	6.821934e-06	7.483513e-08	8.982889e-08
1.058342e+03	6.487593e-05	5.719577e-06	5.921662e-08	7.095780e-08
1.132426e+03	5.394607e-05	4.795374e-06	4.679664e-08	5.595448e-08
1.211696e+03	4.486466e-05	4.020929e-06	3.693370e-08	4.404992e-08
1.296514e+03	3.730628e-05	3.371712e-06	2.910924e-08	3.461538e-08
1.387270e+03	3.102496e-05	2.826922e-06	2.291066e-08	2.715259e-08
1.484379e+03	2.579817e-05	2.369748e-06	1.800604e-08	2.125878e-08
1.588286e+03	2.145359e-05	1.986462e-06	1.413028e-08	1.661204e-08
1.699466e+03	1.783906e-05	1.665294e-06	1.107213e-08	1.295596e-08
1.818428e+03	1.483411e-05	1.396138e-06	8.662344e-09	1.008432e-08
1.945718e+03	1.233517e-05	1.170510e-06	6.766707e-09	7.834212e-09
2.081919e+03	1.025712e-05	9.812968e-07	5.277407e-09	6.073717e-09
2.227653e+03	8.529439e-06	8.225926e-07	4.109582e-09	4.700055e-09
2.383589e+03	7.092277e-06	6.895327e-07	3.194951e-09	3.629683e-09
2.550440e+03	5.897657e-06	5.780168e-07	2.480113e-09	2.798165e-09
2.728971e+03	4.903641e-06	4.845389e-07	1.922021e-09	2.152887e-09
2.919999e+03	4.077748e-06	4.061569e-07	1.487230e-09	1.653699e-09
3.124399e+03	3.390492e-06	3.404398e-07	1.148891e-09	1.267901e-09
3.343106e+03	2.819411e-06	2.853544e-07	8.861470e-10	9.705793e-10
3.577124e+03	2.344214e-06	2.391840e-07	6.823659e-10	7.417399e-10
3.827523e+03	1.949333e-06	2.004852e-07	5.246130e-10	5.660424e-10
4.095449e+03	1.620800e-06	1.680440e-07	4.026609e-10	4.313194e-10
4.382131e+03	1.347755e-06	1.408428e-07	3.085456e-10	3.282064e-10
4.688880e+03	1.120622e-06	1.180384e-07	2.360174e-10	2.493959e-10
5.017101e+03	9.318188e-07	9.892955e-08	1.802027e-10	1.892358e-10
5.368298e+03	7.747876e-07	8.291912e-08	1.373222e-10	1.433843e-10
5.744079e+03	6.442298e-07	6.949868e-08	1.044276e-10	1.084701e-10
6.146165e+03	5.356648e-07	5.824633e-08	7.924169e-11	8.193132e-11
6.576396e+03	4.453880e-07	4.881400e-08	5.998409e-11	6.176511e-11
7.036744e+03	3.703357e-07	4.090917e-08	4.529279e-11	4.647447e-11
7.529316e+03	3.079135e-07	3.428499e-08	3.410120e-11	3.488403e-11
8.056368e+03	2.560263e-07	2.873395e-08	2.559916e-11	2.612351e-11
8.620314e+03	2.128627e-07	2.408123e-08	1.915141e-11	1.950303e-11
9.223736e+03	1.769934e-07	2.018072e-08	1.427775e-11	1.451738e-11
9.869398e+03	1.471541e-07	1.691165e-08	1.060163e-11	1.076525e-11
1.056026e+04	1.223560e-07	1.417283e-08	7.838901e-12	7.952063e-12
1.129947e+04	1.017281e-07	1.187808e-08	5.769224e-12	5.847659e-12
1.209044e+04	8.458399e-08	9.954802e-09	4.225299e-12	4.280314e-12
1.293677e+04	7.032428e-08	8.342679e-09	3.078177e-12	3.116797e-12
1.384234e+04	5.847206e-08	6.991419e-09	2.229906e-12	2.256950e-12
1.481130e+04	4.861529e-08	5.858956e-09	1.605702e-12	1.624556e-12
1.584810e+04	4.042121e-08	4.910055e-09	1.148756e-12	1.161821e-12
1.695746e+04	3.360701e-08	4.114962e-09	8.162471e-13	8.253094e-13
1.814449e+04	2.794182e-08	3.448546e-09	5.757270e-13	5.819168e-13
1.941460e+04	2.323175e-08	2.889911e-09	4.029715e-13	4.072063e-13
2.077362e+04	1.931534e-08	2.421755e-09	2.796948e-13	2.825229e-13
2.222777e+04	1.605935e-08	2.029505e-09	1.924473e-13	1.943470e-13
2.378372e+04	1.335162e-08	1.700804e-09	1.311702e-13	1.324045e-13
2.544858e+04	1.110106e-08	1.425308e-09	8.854855e-14	8.936148e-14
2.722998e+04	9.229277e-09	1.194412e-09	5.913879e-14	5.964950e-14
2.913608e+04	7.673570e-09	1.000911e-09	3.906246e-14	3.938353e-14
3.117560e+04	6.379685e-09	8.387541e-10	2.549177e-14	2.568333e-14
3.335790e+04	5.304226e-09	7.028636e-10	1.642785e-14	1.654260e-14
3.569295e+04	4.409800e-09	5.889861e-10	1.044391e-14	1.050982e-14
3.819145e+04	3.666362e-09	4.935561e-10	6.545617e-15	6.583358e-15
4.086486e+04	3.048125e-09	4.135860e-10	4.039944e-15	4.061191e-15
4.372540e+04	2.534209e-09	3.465728e-10	2.452562e-15	2.464404e-15
4.678617e+04	2.106873e-09	2.904179e-10	1.462927e-15	1.469646e-15
5.006121e+04	1.751623e-09	2.433613e-10	8.565004e-16	8.600950e-16
5.356549e+04	1.456248e-09	2.039285e-10	4.917672e-16	4.936659e-16
5.731508e+04	1.210685e-09	1.708841e-10	2.763967e-16	2.773123e-16
6.132713e+04	1.006534e-09	1.431935e-10	1.519211e-16	1.523931e-16
6.562003e+04	8.367979e-10	1.199899e-10	8.146451e-17	8.168177e-17
7.021343e+04	6.956964e-10	1.005455e-10	4.253777e-17	4.265581e-17
7.512837e+04	5.783732e-10	8.425125e-11	2.155395e-17	2.160808e-17
8.038736e+04	4.808485e-10	7.059704e-11	1.054995e-17	1.057236e-17
8.601447e+04	3.997555e-10	5.915523e-11	4.946451e-18	4.951684e-18
9.203549e+04	3.323409e-10	4.956745e-11	2.184927e-18	2.186486e-18
9.847797e+04	2.762819e-10	4.153335e-11	8.723746e-19	8.726120e-19
1.053714e+05	2.294539e-10	3.478074e-11	2.746117e-19	2.746117e-19
