Energy [GeV/n] 	 C 		 O 		 Ne 		 Mg 		 Si 		 Fe 	     [particles/(GeV/n s m^2 sr)] 
1.000000e-02	8.398636e+01	7.769296e+01	1.198904e+01	1.638868e+01	9.629559e+00	3.011017e+00
1.200000e-02	8.457287e+01	7.827071e+01	1.211909e+01	1.650051e+01	9.766044e+00	3.099690e+00
1.440000e-02	8.440285e+01	7.828674e+01	1.217899e+01	1.652250e+01	9.854062e+00	3.177555e+00
1.728000e-02	8.372707e+01	7.790685e+01	1.218829e+01	1.647252e+01	9.899901e+00	3.244105e+00
2.073600e-02	8.255480e+01	7.709730e+01	1.213408e+01	1.634473e+01	9.898010e+00	3.297033e+00
2.488320e-02	8.081931e+01	7.583894e+01	1.199840e+01	1.613000e+01	9.842708e+00	3.333957e+00
2.985984e-02	7.855756e+01	7.412364e+01	1.178616e+01	1.582277e+01	9.728439e+00	3.352445e+00
3.583181e-02	7.583023e+01	7.193950e+01	1.150473e+01	1.541876e+01	9.550136e+00	3.350032e+00
4.299817e-02	7.262471e+01	6.927125e+01	1.115213e+01	1.491907e+01	9.303835e+00	3.324248e+00
5.159780e-02	6.895984e+01	6.612122e+01	1.072556e+01	1.432514e+01	8.987443e+00	3.272706e+00
6.191736e-02	6.486127e+01	6.249865e+01	1.021779e+01	1.363433e+01	8.602232e+00	3.193747e+00
7.430084e-02	6.038337e+01	5.846721e+01	9.631322e+00	1.283761e+01	8.154691e+00	3.086624e+00
8.916100e-02	5.560093e+01	5.410160e+01	8.978936e+00	1.194753e+01	7.647548e+00	2.950977e+00
1.069932e-01	5.061421e+01	4.945590e+01	8.268422e+00	1.098367e+01	7.084696e+00	2.786822e+00
1.283918e-01	4.549934e+01	4.461344e+01	7.514136e+00	9.963380e+00	6.475177e+00	2.595895e+00
1.540702e-01	4.038303e+01	3.967957e+01	6.733554e+00	8.907672e+00	5.831238e+00	2.381633e+00
1.848843e-01	3.534709e+01	3.476699e+01	5.942782e+00	7.838820e+00	5.168250e+00	2.149294e+00
2.218611e-01	3.050382e+01	2.999596e+01	5.159739e+00	6.784967e+00	4.503886e+00	1.905794e+00
2.662333e-01	2.593991e+01	2.546804e+01	4.407274e+00	5.772106e+00	3.856752e+00	1.659291e+00
3.194800e-01	2.173037e+01	2.127921e+01	3.700148e+00	4.824183e+00	3.244559e+00	1.418247e+00
3.833760e-01	1.792418e+01	1.749438e+01	3.054777e+00	3.961107e+00	2.681917e+00	1.190457e+00
4.600512e-01	1.455988e+01	1.415629e+01	2.478164e+00	3.196006e+00	2.179129e+00	9.819971e-01
5.520614e-01	1.164303e+01	1.127952e+01	1.977356e+00	2.534924e+00	1.741429e+00	7.966640e-01
6.624737e-01	9.169081e+00	8.850690e+00	1.552948e+00	1.977122e+00	1.369035e+00	6.359804e-01
7.949685e-01	7.101697e+00	6.832244e+00	1.199648e+00	1.515821e+00	1.058191e+00	4.993628e-01
9.539622e-01	5.405689e+00	5.187892e+00	9.106411e-01	1.141110e+00	8.037926e-01	3.852916e-01
1.144755e+00	4.044483e+00	3.875223e+00	6.797420e-01	8.451254e-01	6.010231e-01	2.928725e-01
1.373706e+00	2.973462e+00	2.851830e+00	4.997919e-01	6.172119e-01	4.434055e-01	2.198890e-01
1.648447e+00	2.153814e+00	2.069827e+00	3.626856e-01	4.449623e-01	3.234544e-01	1.634338e-01
1.978136e+00	1.536874e+00	1.483207e+00	2.602884e-01	3.170922e-01	2.334799e-01	1.203811e-01
2.373763e+00	1.080181e+00	1.049056e+00	1.841930e-01	2.231494e-01	1.666675e-01	8.803203e-02
2.848516e+00	7.491486e-01	7.324698e-01	1.287552e-01	1.549609e-01	1.174721e-01	6.370445e-02
3.418219e+00	5.126401e-01	5.051333e-01	8.894693e-02	1.062743e-01	8.178359e-02	4.568486e-02
4.101863e+00	3.473209e-01	3.442898e-01	6.067873e-02	7.200263e-02	5.623978e-02	3.246148e-02
4.922235e+00	2.324143e-01	2.316906e-01	4.088525e-02	4.811432e-02	3.813596e-02	2.272064e-02
5.906682e+00	1.533955e-01	1.541567e-01	2.721563e-02	3.179334e-02	2.561160e-02	1.579237e-02
7.088019e+00	1.000595e-01	1.014545e-01	1.790324e-02	2.077472e-02	1.702320e-02	1.087285e-02
8.505622e+00	6.421479e-02	6.557862e-02	1.151641e-02	1.335459e-02	1.102992e-02	7.229557e-03
1.020675e+01	4.070511e-02	4.193835e-02	7.317397e-03	8.506769e-03	7.069565e-03	4.742401e-03
1.224810e+01	2.561172e-02	2.661650e-02	4.616681e-03	5.381972e-03	4.498637e-03	3.084832e-03
1.469772e+01	1.601325e-02	1.678970e-02	2.893250e-03	3.385342e-03	2.845264e-03	1.993835e-03
1.763726e+01	9.973842e-03	1.053705e-02	1.805178e-03	2.120333e-03	1.790444e-03	1.281892e-03
2.116471e+01	6.178647e-03	6.582743e-03	1.119569e-03	1.319862e-03	1.120226e-03	8.189649e-04
2.539765e+01	3.817493e-03	4.094961e-03	6.911369e-04	8.182479e-04	6.972733e-04	5.204901e-04
3.047718e+01	2.351675e-03	2.539552e-03	4.252725e-04	5.052541e-04	4.324115e-04	3.295525e-04
3.657262e+01	1.445386e-03	1.570605e-03	2.611937e-04	3.111749e-04	2.673523e-04	2.079830e-04
4.388714e+01	8.863860e-04	9.690329e-04	1.597567e-04	1.910814e-04	1.648722e-04	1.309047e-04
5.266457e+01	5.425685e-04	5.966482e-04	9.768009e-05	1.170320e-04	1.013970e-04	8.215850e-05
6.319749e+01	3.316831e-04	3.665349e-04	5.952960e-05	7.149104e-05	6.219519e-05	5.141728e-05
7.583698e+01	2.025056e-04	2.249377e-04	3.621785e-05	4.363802e-05	3.809330e-05	3.212478e-05
9.100438e+01	1.237389e-04	1.379939e-04	2.204864e-05	2.661803e-05	2.331252e-05	2.005298e-05
1.092053e+02	7.561366e-05	8.466509e-05	1.340746e-05	1.622916e-05	1.425742e-05	1.250811e-05
1.310463e+02	4.628141e-05	5.200150e-05	8.165272e-06	9.893783e-06	8.721007e-06	7.803250e-06
1.572556e+02	2.839742e-05	3.200706e-05	4.978525e-06	6.046387e-06	5.343090e-06	4.873921e-06
1.887067e+02	1.748044e-05	1.975532e-05	3.045207e-06	3.703429e-06	3.280551e-06	3.048786e-06
2.264480e+02	1.078667e-05	1.222045e-05	1.866022e-06	2.272483e-06	2.018136e-06	1.909707e-06
2.717376e+02	6.668405e-06	7.571165e-06	1.145625e-06	1.396564e-06	1.242964e-06	1.196832e-06
3.260852e+02	4.069288e-06	4.630893e-06	6.942403e-07	8.476156e-07	7.562060e-07	7.418761e-07
3.913022e+02	2.569833e-06	2.927187e-06	4.348819e-07	5.308384e-07	4.745289e-07	4.720859e-07
4.695626e+02	1.594934e-06	1.820460e-06	2.678069e-07	3.273870e-07	2.931684e-07	2.963473e-07
5.634751e+02	9.885176e-07	1.130246e-06	1.647761e-07	2.016378e-07	1.808278e-07	1.857751e-07
6.761702e+02	6.126518e-07	7.014940e-07	1.012949e-07	1.240408e-07	1.114942e-07	1.163864e-07
8.114042e+02	3.796234e-07	4.353154e-07	6.227807e-08	7.632150e-08	6.872455e-08	7.288846e-08
9.736850e+02	2.351835e-07	2.700492e-07	3.825220e-08	4.694543e-08	4.234582e-08	4.562838e-08
1.168422e+03	1.457133e-07	1.676045e-07	2.352346e-08	2.887753e-08	2.609898e-08	2.856829e-08
1.402106e+03	9.031458e-08	1.039871e-07	1.445206e-08	1.776026e-08	1.608268e-08	1.788401e-08
1.682528e+03	5.594784e-08	6.450829e-08	8.883475e-09	1.092457e-08	9.907701e-09	1.119055e-08
2.019033e+03	3.465771e-08	4.001487e-08	5.456519e-09	6.714748e-09	6.101951e-09	6.999878e-09
2.422840e+03	2.146378e-08	2.481251e-08	3.351601e-09	4.126655e-09	3.757079e-09	4.377353e-09
2.907408e+03	1.329284e-08	1.538660e-08	2.057930e-09	2.536375e-09	2.312724e-09	2.736304e-09
3.488890e+03	8.228287e-09	9.537420e-09	1.263525e-09	1.558006e-09	1.423272e-09	1.709845e-09
4.186667e+03	5.094837e-09	5.911798e-09	7.755389e-10	9.570141e-10	8.756564e-10	1.068058e-09
5.024001e+03	3.154156e-09	3.663815e-09	4.760078e-10	5.876647e-10	5.385788e-10	6.669366e-10
6.028801e+03	1.952090e-09	2.269625e-09	2.920758e-10	3.608029e-10	3.311756e-10	4.162856e-10
7.234561e+03	1.207938e-09	1.405900e-09	1.791720e-10	2.214601e-10	2.035867e-10	2.597616e-10
8.681474e+03	7.474181e-10	8.706567e-10	1.099260e-10	1.358904e-10	1.251123e-10	1.620160e-10
1.041777e+04	4.624552e-10	5.391591e-10	6.740476e-11	8.335581e-11	7.687960e-11	1.010368e-10
1.250132e+04	2.862451e-10	3.340612e-10	4.135410e-11	5.118883e-11	4.727007e-11	6.305194e-11
1.500159e+04	1.771875e-10	2.069499e-10	2.537493e-11	3.141852e-11	2.905858e-11	3.933667e-11
1.800190e+04	1.096293e-10	1.282058e-10	1.556575e-11	1.928185e-11	1.786167e-11	2.453748e-11
2.160228e+04	6.786289e-11	7.941358e-11	9.547717e-12	1.183451e-11	1.097827e-11	1.530346e-11
2.592274e+04	4.198671e-11	4.918880e-11	5.855438e-12	7.262355e-12	6.746656e-12	9.542748e-12
3.110729e+04	2.598365e-11	3.046617e-11	3.592273e-12	4.456339e-12	4.145810e-12	5.949644e-12
3.732875e+04	1.607900e-11	1.886745e-11	2.204010e-12	2.733975e-12	2.547117e-12	3.708514e-12
4.479450e+04	9.948851e-12	1.168267e-11	1.352084e-12	1.676986e-12	1.564575e-12	2.310927e-12
5.375340e+04	6.155181e-12	7.232864e-12	8.293668e-13	1.028441e-12	9.608349e-13	1.439616e-12
6.450408e+04	3.807677e-12	4.477238e-12	5.086791e-13	6.305796e-13	5.899319e-13	8.965526e-13
7.740489e+04	2.355238e-12	2.770997e-12	3.119578e-13	3.865507e-13	3.621184e-13	5.581719e-13
9.288587e+04	1.456666e-12	1.714676e-12	1.912936e-13	2.369023e-13	2.222210e-13	3.473862e-13
1.114630e+05	8.983484e-13	1.057975e-12	1.169811e-13	1.447702e-13	1.359773e-13	2.155904e-13
