Energy [GeV/n] 	 H 		 He 		 e^- 		 e^-+e^+ 	     [particles/(GeV/n s m^2 sr)] 
1.000000e-02	6.660874e+01	2.642223e+01	2.388379e-01	2.786074e-01
1.070000e-02	7.109737e+01	2.813983e+01	2.704413e-01	3.154538e-01
1.144900e-02	7.587547e+01	2.995922e+01	3.062302e-01	3.571759e-01
1.225043e-02	8.095982e+01	3.188502e+01	3.467439e-01	4.044008e-01
1.310796e-02	8.636790e+01	3.392181e+01	3.925864e-01	4.578309e-01
1.402552e-02	9.211786e+01	3.607444e+01	4.444332e-01	5.182514e-01
1.500730e-02	9.822852e+01	3.834713e+01	5.030386e-01	5.865388e-01
1.605781e-02	1.047201e+02	4.075720e+01	5.692433e-01	6.636693e-01
1.718186e-02	1.116121e+02	4.330147e+01	6.439818e-01	7.507276e-01
1.838459e-02	1.189249e+02	4.598164e+01	7.282905e-01	8.489163e-01
1.967151e-02	1.266794e+02	4.880163e+01	8.233159e-01	9.595647e-01
2.104852e-02	1.349243e+02	5.176494e+01	9.303222e-01	1.084138e+00
2.252192e-02	1.436702e+02	5.487454e+01	1.050699e+00	1.224244e+00
2.409845e-02	1.529310e+02	5.813276e+01	1.185968e+00	1.381643e+00
2.578534e-02	1.627294e+02	6.154110e+01	1.337786e+00	1.558253e+00
2.759032e-02	1.730882e+02	6.510014e+01	1.507955e+00	1.756148e+00
2.952164e-02	1.840295e+02	6.880929e+01	1.698414e+00	1.977568e+00
3.158815e-02	1.955750e+02	7.266666e+01	1.913310e+00	2.227404e+00
3.379932e-02	2.077454e+02	7.666879e+01	2.154323e+00	2.507551e+00
3.616528e-02	2.205599e+02	8.081041e+01	2.423443e+00	2.820271e+00
3.869684e-02	2.340388e+02	8.512925e+01	2.723409e+00	3.168714e+00
4.140562e-02	2.481975e+02	8.961804e+01	3.057102e+00	3.556182e+00
4.430402e-02	2.630472e+02	9.423722e+01	3.427512e+00	3.986101e+00
4.740530e-02	2.785972e+02	9.897282e+01	3.837712e+00	4.461975e+00
5.072367e-02	2.948529e+02	1.038083e+02	4.290795e+00	4.987317e+00
5.427433e-02	3.118148e+02	1.087244e+02	4.789813e+00	5.565576e+00
5.807353e-02	3.294778e+02	1.136979e+02	5.337684e+00	6.200019e+00
6.213868e-02	3.478327e+02	1.187563e+02	5.937081e+00	6.893603e+00
6.648838e-02	3.670898e+02	1.239585e+02	6.590287e+00	7.648798e+00
7.114257e-02	3.871421e+02	1.291584e+02	7.299017e+00	8.467376e+00
7.612255e-02	4.078713e+02	1.343235e+02	8.079502e+00	9.368661e+00
8.145113e-02	4.292372e+02	1.394092e+02	8.937024e+00	1.035873e+01
8.715271e-02	4.511906e+02	1.444157e+02	9.860808e+00	1.142422e+01
9.325340e-02	4.736785e+02	1.495148e+02	1.085032e+01	1.256418e+01
9.978114e-02	4.966068e+02	1.544213e+02	1.190337e+01	1.377567e+01
1.067658e-01	5.198770e+02	1.590731e+02	1.301567e+01	1.505325e+01
1.142394e-01	5.438470e+02	1.634773e+02	1.418036e+01	1.638837e+01
1.222362e-01	5.683966e+02	1.679017e+02	1.541315e+01	1.779967e+01
1.307927e-01	5.930477e+02	1.719192e+02	1.675568e+01	1.933701e+01
1.399482e-01	6.176350e+02	1.754441e+02	1.814067e+01	2.091935e+01
1.497446e-01	6.419924e+02	1.788880e+02	1.955123e+01	2.252629e+01
1.602267e-01	6.659731e+02	1.818807e+02	2.096528e+01	2.413128e+01
1.714426e-01	6.906913e+02	1.841903e+02	2.238452e+01	2.573656e+01
1.834435e-01	7.147166e+02	1.863957e+02	2.392844e+01	2.748641e+01
1.962846e-01	7.377433e+02	1.879426e+02	2.543107e+01	2.918139e+01
2.100245e-01	7.594579e+02	1.888442e+02	2.685216e+01	3.077375e+01
2.247262e-01	7.813434e+02	1.894786e+02	2.818255e+01	3.225298e+01
2.404571e-01	8.019364e+02	1.891568e+02	2.963281e+01	3.387112e+01
2.572891e-01	8.205098e+02	1.887232e+02	3.092003e+01	3.529119e+01
2.752993e-01	8.374786e+02	1.873138e+02	3.198032e+01	3.643795e+01
2.945703e-01	8.538592e+02	1.856427e+02	3.309935e+01	3.765462e+01
3.151902e-01	8.672955e+02	1.830728e+02	3.404654e+01	3.866712e+01
3.372535e-01	8.784293e+02	1.802686e+02	3.464827e+01	3.926981e+01
3.608612e-01	8.885456e+02	1.765126e+02	3.533625e+01	3.997603e+01
3.861215e-01	8.947780e+02	1.727197e+02	3.571293e+01	4.031618e+01
4.131500e-01	8.994909e+02	1.679482e+02	3.579609e+01	4.031387e+01
4.420705e-01	9.014286e+02	1.631871e+02	3.589799e+01	4.034274e+01
4.730155e-01	8.996560e+02	1.577403e+02	3.548641e+01	3.977327e+01
5.061265e-01	8.967342e+02	1.519251e+02	3.522514e+01	3.938819e+01
5.415554e-01	8.887050e+02	1.460270e+02	3.447820e+01	3.844176e+01
5.794643e-01	8.806542e+02	1.395987e+02	3.377172e+01	3.755504e+01
6.200268e-01	8.668780e+02	1.331015e+02	3.269071e+01	3.624279e+01
6.634286e-01	8.533965e+02	1.265406e+02	3.166075e+01	3.500125e+01
7.098686e-01	8.344453e+02	1.197141e+02	3.026308e+01	3.334456e+01
7.595595e-01	8.154107e+02	1.128325e+02	2.903961e+01	3.190410e+01
8.127286e-01	7.921611e+02	1.061935e+02	2.745637e+01	3.006066e+01
8.696196e-01	7.675860e+02	9.947871e+01	2.606712e+01	2.845398e+01
9.304930e-01	7.409385e+02	9.273926e+01	2.449280e+01	2.664669e+01
9.956275e-01	7.110792e+02	8.623193e+01	2.289379e+01	2.482445e+01
1.065321e+00	6.821732e+02	8.003458e+01	2.141479e+01	2.315041e+01
1.139894e+00	6.503167e+02	7.394681e+01	1.982062e+01	2.135641e+01
1.219686e+00	6.171476e+02	6.802571e+01	1.833211e+01	1.969227e+01
1.305065e+00	5.846714e+02	6.232350e+01	1.692424e+01	1.812815e+01
1.396419e+00	5.505434e+02	5.703652e+01	1.549353e+01	1.654684e+01
1.494168e+00	5.154579e+02	5.204440e+01	1.413739e+01	1.505630e+01
1.598760e+00	4.825721e+02	4.729669e+01	1.292433e+01	1.373210e+01
1.710673e+00	4.491349e+02	4.281253e+01	1.173062e+01	1.243408e+01
1.830421e+00	4.156334e+02	3.861282e+01	1.058155e+01	1.118955e+01
1.958550e+00	3.829756e+02	3.470829e+01	9.538625e+00	1.006601e+01
2.095648e+00	3.524637e+02	3.110820e+01	8.592716e+00	9.049979e+00
2.242344e+00	3.226875e+02	2.785433e+01	7.695981e+00	8.090064e+00
2.399308e+00	2.939100e+02	2.485348e+01	6.856769e+00	7.194659e+00
2.567260e+00	2.663491e+02	2.209973e+01	6.078798e+00	6.366495e+00
2.746968e+00	2.408054e+02	1.958831e+01	5.392915e+00	5.639727e+00
2.939255e+00	2.172775e+02	1.732073e+01	4.770780e+00	4.981834e+00
3.145003e+00	1.951827e+02	1.527394e+01	4.199519e+00	4.379313e+00
3.365154e+00	1.745871e+02	1.343117e+01	3.679157e+00	3.831772e+00
3.600714e+00	1.555291e+02	1.177788e+01	3.208390e+00	3.337413e+00
3.852764e+00	1.380346e+02	1.030050e+01	2.785253e+00	2.894126e+00
4.122458e+00	1.220593e+02	8.985647e+00	2.409359e+00	2.501077e+00
4.411030e+00	1.079892e+02	7.826113e+00	2.083454e+00	2.160981e+00
4.719802e+00	9.524327e+01	6.807190e+00	1.792162e+00	1.857512e+00
5.050188e+00	8.374200e+01	5.906370e+00	1.533093e+00	1.588025e+00
5.403701e+00	7.341556e+01	5.111846e+00	1.303654e+00	1.349760e+00
5.781960e+00	6.418913e+01	4.413626e+00	1.101020e+00	1.139654e+00
6.186697e+00	5.598555e+01	3.803768e+00	9.222462e-01	9.545657e-01
6.619766e+00	4.872109e+01	3.272018e+00	7.641151e-01	7.911461e-01
7.083150e+00	4.230898e+01	2.807337e+00	6.247166e-01	6.472672e-01
7.578970e+00	3.666954e+01	2.402116e+00	5.077650e-01	5.266018e-01
8.109498e+00	3.171916e+01	2.050687e+00	4.118302e-01	4.275093e-01
8.677163e+00	2.740707e+01	1.747226e+00	3.341730e-01	3.472834e-01
9.284565e+00	2.367578e+01	1.486165e+00	2.713723e-01	2.823114e-01
9.934484e+00	2.040293e+01	1.262285e+00	2.200259e-01	2.291642e-01
1.062990e+01	1.750651e+01	1.070656e+00	1.781165e-01	1.857324e-01
1.137399e+01	1.494016e+01	9.067486e-01	1.439931e-01	1.503439e-01
1.217017e+01	1.269283e+01	7.666898e-01	1.162590e-01	1.215503e-01
1.302208e+01	1.074746e+01	6.472847e-01	9.376172e-02	9.816787e-02
1.393363e+01	9.074537e+00	5.457899e-01	7.554146e-02	7.920872e-02
1.490898e+01	7.644192e+00	4.597453e-01	6.080506e-02	6.385659e-02
1.595261e+01	6.426699e+00	3.869418e-01	4.890254e-02	5.144260e-02
1.706929e+01	5.394024e+00	3.254149e-01	3.930058e-02	4.141446e-02
1.826414e+01	4.520871e+00	2.734523e-01	3.156368e-02	3.332247e-02
1.954263e+01	3.784299e+00	2.296056e-01	2.533538e-02	2.679868e-02
2.091062e+01	3.164412e+00	1.926522e-01	2.032532e-02	2.154277e-02
2.237436e+01	2.643619e+00	1.615358e-01	1.629902e-02	1.731242e-02
2.394057e+01	2.206789e+00	1.353428e-01	1.306545e-02	1.390837e-02
2.561641e+01	1.840959e+00	1.133057e-01	1.047087e-02	1.117227e-02
2.740956e+01	1.534705e+00	9.478947e-02	8.389329e-03	8.972534e-03
2.932822e+01	1.278712e+00	7.925602e-02	6.720926e-03	7.206411e-03
3.138120e+01	1.064721e+00	6.624150e-02	5.383622e-03	5.787322e-03
3.357788e+01	8.862615e-01	5.534575e-02	4.312667e-03	4.648677e-03
3.592834e+01	7.372924e-01	4.622270e-02	3.454886e-03	3.734298e-03
3.844332e+01	6.131535e-01	3.858161e-02	2.768294e-03	3.000748e-03
4.113435e+01	5.096303e-01	3.218703e-02	2.218701e-03	2.411979e-03
4.401376e+01	4.234804e-01	2.684347e-02	1.778959e-03	1.939712e-03
4.709472e+01	3.517372e-01	2.238011e-02	1.427133e-03	1.560795e-03
5.039135e+01	2.920828e-01	1.865008e-02	1.145718e-03	1.256827e-03
5.391874e+01	2.424529e-01	1.553388e-02	9.206548e-04	1.013004e-03
5.769306e+01	2.012026e-01	1.293441e-02	7.406673e-04	8.173904e-04
6.173157e+01	1.669097e-01	1.076838e-02	5.968262e-04	6.605772e-04
6.605278e+01	1.384251e-01	8.963595e-03	4.819248e-04	5.348621e-04
7.067647e+01	1.147783e-01	7.459379e-03	3.898969e-04	4.338697e-04
7.562383e+01	9.514302e-02	6.205447e-03	3.153526e-04	3.518418e-04
8.091750e+01	7.885284e-02	5.160378e-03	2.550190e-04	2.853070e-04
8.658172e+01	6.532866e-02	4.290306e-03	2.061610e-04	2.312737e-04
9.264244e+01	5.412517e-02	3.566655e-03	1.666329e-04	1.874668e-04
9.912741e+01	4.482621e-02	2.964655e-03	1.346395e-04	1.519008e-04
1.060663e+02	3.712584e-02	2.463553e-03	1.087687e-04	1.230704e-04
1.134910e+02	3.073713e-02	2.046569e-03	8.784075e-05	9.967739e-05
1.214353e+02	2.544836e-02	1.699871e-03	7.092181e-05	8.071623e-05
1.299358e+02	2.106281e-02	1.411766e-03	5.724390e-05	6.534076e-05
1.390313e+02	1.743368e-02	1.172398e-03	4.619196e-05	5.288136e-05
1.487635e+02	1.442619e-02	9.735115e-04	3.726289e-05	4.278492e-05
1.591770e+02	1.193751e-02	8.082296e-04	3.005088e-05	3.460604e-05
1.703193e+02	9.875985e-03	6.709018e-04	2.422764e-05	2.798282e-05
1.822417e+02	8.170226e-03	5.569053e-04	1.952637e-05	2.261896e-05
1.949986e+02	6.758288e-03	4.625867e-04	1.573277e-05	1.827804e-05
2.086485e+02	5.589917e-03	3.867612e-04	1.267147e-05	1.476369e-05
2.232539e+02	4.623226e-03	3.245145e-04	1.020272e-05	1.192139e-05
2.388817e+02	3.823120e-03	2.723999e-04	8.211401e-06	9.621152e-06
2.556034e+02	3.161528e-03	2.286661e-04	6.606453e-06	7.762018e-06
2.734957e+02	2.613818e-03	1.919453e-04	5.312585e-06	6.258215e-06
2.926404e+02	2.161363e-03	1.611041e-04	4.270459e-06	5.043704e-06
3.131252e+02	1.786901e-03	1.352054e-04	3.430891e-06	4.062048e-06
3.350439e+02	1.478696e-03	1.134631e-04	2.755124e-06	3.269783e-06
3.584970e+02	1.229310e-03	9.521102e-05	2.211175e-06	2.630092e-06
3.835918e+02	1.022916e-03	7.988757e-05	1.773665e-06	2.114185e-06
4.104432e+02	8.511068e-04	6.702558e-05	1.421825e-06	1.698114e-06
4.391743e+02	7.082546e-04	5.623382e-05	1.139053e-06	1.362843e-06
4.699165e+02	5.892731e-04	4.717901e-05	9.118899e-07	1.092815e-06
5.028106e+02	4.903152e-04	3.957874e-05	7.295060e-07	8.754916e-07
5.380073e+02	4.079213e-04	3.319929e-05	5.831683e-07	7.007321e-07
5.756679e+02	3.393811e-04	2.784726e-05	4.658089e-07	5.602679e-07
6.159646e+02	2.823379e-04	2.335826e-05	3.717687e-07	4.475034e-07
6.590821e+02	2.348758e-04	1.959182e-05	2.964427e-07	3.570041e-07
7.052179e+02	1.953936e-04	1.643088e-05	2.361694e-07	2.844852e-07
7.545831e+02	1.625317e-04	1.377885e-05	1.879596e-07	2.263929e-07
8.074040e+02	1.352047e-04	1.155452e-05	1.494467e-07	1.799459e-07
8.639222e+02	1.124523e-04	9.689169e-06	1.186907e-07	1.428124e-07
9.243968e+02	9.354364e-05	8.124909e-06	9.416360e-08	1.131876e-07
9.891046e+02	7.779848e-05	6.812983e-06	7.461300e-08	8.956121e-08
1.058342e+03	6.471414e-05	5.712564e-06	5.905185e-08	7.075940e-08
1.132426e+03	5.382038e-05	4.789882e-06	4.667459e-08	5.580770e-08
1.211696e+03	4.476693e-05	4.016626e-06	3.684338e-08	4.394149e-08
1.296514e+03	3.723034e-05	3.368338e-06	2.904251e-08	3.453543e-08
1.387270e+03	3.096592e-05	2.824277e-06	2.286141e-08	2.709373e-08
1.484379e+03	2.575229e-05	2.367676e-06	1.796974e-08	2.121552e-08
1.588286e+03	2.141792e-05	1.984839e-06	1.410358e-08	1.658032e-08
1.699466e+03	1.781134e-05	1.664023e-06	1.105250e-08	1.293273e-08
1.818428e+03	1.481257e-05	1.395143e-06	8.647945e-09	1.006736e-08
1.945718e+03	1.231843e-05	1.169730e-06	6.756158e-09	7.821841e-09
2.081919e+03	1.024411e-05	9.806854e-07	5.269692e-09	6.064718e-09
2.227653e+03	8.519325e-06	8.221135e-07	4.103948e-09	4.693518e-09
2.383589e+03	7.084418e-06	6.891575e-07	3.190843e-09	3.624947e-09
2.550440e+03	5.891547e-06	5.777228e-07	2.477122e-09	2.794739e-09
2.728971e+03	4.898895e-06	4.843086e-07	1.919847e-09	2.150415e-09
2.919999e+03	4.074058e-06	4.059764e-07	1.485653e-09	1.651918e-09
3.124399e+03	3.387625e-06	3.402985e-07	1.147749e-09	1.266620e-09
3.343106e+03	2.817182e-06	2.852436e-07	8.853208e-10	9.696601e-10
3.577124e+03	2.342483e-06	2.390973e-07	6.817693e-10	7.410815e-10
3.827523e+03	1.947987e-06	2.004172e-07	5.241829e-10	5.655713e-10
4.095449e+03	1.619754e-06	1.679908e-07	4.023513e-10	4.309830e-10
4.382131e+03	1.346942e-06	1.408011e-07	3.083231e-10	3.279665e-10
4.688880e+03	1.119990e-06	1.180058e-07	2.358577e-10	2.492250e-10
5.017101e+03	9.313279e-07	9.890398e-08	1.800883e-10	1.891142e-10
5.368298e+03	7.744062e-07	8.289909e-08	1.372404e-10	1.432980e-10
5.744079e+03	6.439334e-07	6.948298e-08	1.043692e-10	1.084089e-10
6.146165e+03	5.354344e-07	5.823404e-08	7.920007e-11	8.188795e-11
6.576396e+03	4.452090e-07	4.880438e-08	5.995450e-11	6.173444e-11
7.036744e+03	3.701966e-07	4.090164e-08	4.527180e-11	4.645279e-11
7.529316e+03	3.078054e-07	3.427908e-08	3.408634e-11	3.486876e-11
8.056368e+03	2.559423e-07	2.872932e-08	2.558867e-11	2.611276e-11
8.620314e+03	2.127974e-07	2.407760e-08	1.914402e-11	1.949549e-11
9.223736e+03	1.769427e-07	2.017788e-08	1.427256e-11	1.451210e-11
9.869398e+03	1.471147e-07	1.690942e-08	1.059801e-11	1.076156e-11
1.056026e+04	1.223254e-07	1.417109e-08	7.836373e-12	7.949495e-12
1.129947e+04	1.017043e-07	1.187672e-08	5.767470e-12	5.845879e-12
1.209044e+04	8.456549e-08	9.953735e-09	4.224087e-12	4.279086e-12
1.293677e+04	7.030991e-08	8.341842e-09	3.077344e-12	3.115953e-12
1.384234e+04	5.846089e-08	6.990765e-09	2.229336e-12	2.256372e-12
1.481130e+04	4.860661e-08	5.858443e-09	1.605314e-12	1.624163e-12
1.584810e+04	4.041447e-08	4.909653e-09	1.148494e-12	1.161556e-12
1.695746e+04	3.360177e-08	4.114647e-09	8.160708e-13	8.251310e-13
1.814449e+04	2.793775e-08	3.448300e-09	5.756093e-13	5.817978e-13
1.941460e+04	2.322858e-08	2.889718e-09	4.028935e-13	4.071274e-13
2.077362e+04	1.931288e-08	2.421604e-09	2.796435e-13	2.824711e-13
2.222777e+04	1.605744e-08	2.029387e-09	1.924139e-13	1.943131e-13
2.378372e+04	1.335013e-08	1.700711e-09	1.311486e-13	1.323826e-13
2.544858e+04	1.109990e-08	1.425235e-09	8.853471e-14	8.934750e-14
2.722998e+04	9.228380e-09	1.194355e-09	5.913001e-14	5.964064e-14
2.913608e+04	7.672874e-09	1.000867e-09	3.905695e-14	3.937797e-14
3.117560e+04	6.379144e-09	8.387192e-10	2.548835e-14	2.567988e-14
3.335790e+04	5.303806e-09	7.028363e-10	1.642575e-14	1.654049e-14
3.569295e+04	4.409474e-09	5.889647e-10	1.044264e-14	1.050854e-14
3.819145e+04	3.666108e-09	4.935394e-10	6.544861e-15	6.582598e-15
4.086486e+04	3.047928e-09	4.135729e-10	4.039500e-15	4.060744e-15
4.372540e+04	2.534055e-09	3.465625e-10	2.452305e-15	2.464146e-15
4.678617e+04	2.106754e-09	2.904099e-10	1.462781e-15	1.469499e-15
5.006121e+04	1.751530e-09	2.433550e-10	8.564189e-16	8.600131e-16
5.356549e+04	1.456176e-09	2.039235e-10	4.917225e-16	4.936210e-16
5.731508e+04	1.210629e-09	1.708803e-10	2.763727e-16	2.772882e-16
6.132713e+04	1.006491e-09	1.431904e-10	1.519085e-16	1.523804e-16
6.562003e+04	8.367642e-10	1.199876e-10	8.145805e-17	8.167529e-17
7.021343e+04	6.956702e-10	1.005436e-10	4.253454e-17	4.265257e-17
7.512837e+04	5.783529e-10	8.424980e-11	2.155238e-17	2.160650e-17
8.038736e+04	4.808327e-10	7.059591e-11	1.054920e-17	1.057161e-17
8.601447e+04	3.997432e-10	5.915434e-11	4.946112e-18	4.951345e-18
9.203549e+04	3.323313e-10	4.956676e-11	2.184779e-18	2.186338e-18
9.847797e+04	2.762745e-10	4.153280e-11	8.723129e-19	8.725503e-19
1.053714e+05	2.294513e-10	3.478054e-11	2.746087e-19	2.746087e-19
